# EMChargedPionPairProduction interaction rates
# photon field: cosmic infrared and optical background radiation (upper) model of Saldana-Lopez et al. 2021 (arXiv:2012.03035)
# Produced with crpropa-data version: fc42dfff4c986259559611aeb7ae6043dc0b7378
# log10(E/eV), 1/lambda [1/Mpc]
15.25	2.3537696e-14
15.31	2.5694682e-13
15.38	1.0647544e-12
15.44	3.0349642e-12
15.50	6.8676426e-12
15.56	1.3376740e-11
15.62	2.3680082e-11
15.68	3.9177754e-11
15.74	6.1150681e-11
15.80	9.0885147e-11
15.86	1.3037221e-10
15.92	1.8309557e-10
15.98	2.5416075e-10
16.04	3.4992163e-10
16.10	4.7714857e-10
16.16	6.4169181e-10
16.23	8.4811922e-10
16.29	1.1003293e-09
16.35	1.4018554e-09
16.41	1.7549039e-09
16.47	2.1594984e-09
16.53	2.6134154e-09
16.59	3.1117332e-09
16.65	3.6432355e-09
16.71	4.1896918e-09
16.77	4.7278973e-09
16.83	5.2330256e-09
16.89	5.6857063e-09
16.95	6.0746834e-09
17.01	6.3984875e-09
17.07	6.6679370e-09
17.14	6.9089060e-09
17.20	7.1674816e-09
17.26	7.4965309e-09
17.32	7.9449398e-09
17.38	8.5600281e-09
17.44	9.3743993e-09
17.50	1.0405924e-08
17.56	1.1675582e-08
17.62	1.3194992e-08
17.68	1.5010182e-08
17.74	1.7265877e-08
17.80	2.0207204e-08
17.86	2.4206061e-08
17.93	2.9804740e-08
17.99	3.7733024e-08
18.05	4.8936238e-08
18.11	6.4597343e-08
18.17	8.6093855e-08
18.23	1.1490344e-07
18.29	1.5244751e-07
18.35	1.9985480e-07
18.41	2.5768463e-07
18.47	3.2564124e-07
18.53	4.0233133e-07
18.59	4.8515511e-07
18.65	5.7045339e-07
18.71	6.5393143e-07
18.77	7.3122237e-07
18.84	7.9841261e-07
18.90	8.5246838e-07
18.96	8.9153027e-07
19.02	9.1500180e-07
19.08	9.2340990e-07
19.14	9.1812863e-07
19.20	9.0101248e-07
19.26	8.7275905e-07
19.32	8.3478449e-07
19.38	7.9042727e-07
19.44	7.4253034e-07
19.50	6.9317088e-07
19.56	6.4376437e-07
19.62	5.9525519e-07
19.69	5.4825816e-07
19.75	5.0317685e-07
19.81	4.6026704e-07
19.87	4.1969203e-07
19.93	3.8154270e-07
19.99	3.4587311e-07
20.05	3.1266372e-07
20.11	2.8189772e-07
20.17	2.5351832e-07
20.23	2.2745027e-07
20.29	2.0359834e-07
20.35	1.8185658e-07
20.41	1.6210706e-07
20.48	1.4422758e-07
20.54	1.2809056e-07
20.60	1.1357073e-07
20.66	1.0053860e-07
20.72	8.8872325e-08
20.78	7.8453907e-08
20.84	6.9169761e-08
20.90	6.0913623e-08
20.96	5.3585062e-08
21.02	4.7091510e-08
21.08	4.1346752e-08
21.14	3.6273694e-08
21.20	3.1796914e-08
21.26	2.7852781e-08
21.32	2.4381745e-08
21.39	2.1330463e-08
21.45	1.8650639e-08
21.51	1.6299280e-08
21.57	1.4237706e-08
21.63	1.2431655e-08
21.69	1.0850456e-08
21.75	9.4671905e-09
21.81	8.2574914e-09
21.87	7.2002221e-09
21.93	6.2766670e-09
21.99	5.4702228e-09
22.05	4.7663569e-09
22.11	4.1522091e-09
22.18	3.6165487e-09
22.24	3.1494594e-09
22.30	2.7422959e-09
22.36	2.3875413e-09
22.42	2.0783416e-09
22.48	1.8089772e-09
22.54	1.5743720e-09
22.60	1.3700631e-09
22.66	1.1921746e-09
22.72	1.0373026e-09
22.78	9.0249302e-10
22.84	7.8515335e-10
22.90	6.8303555e-10
22.96	5.9417914e-10
23.02	5.1684994e-10
23.09	4.4956873e-10
23.15	3.9103059e-10
23.21	3.4010521e-10
23.27	2.9580244e-10
23.33	2.5726504e-10
23.39	2.2374234e-10
23.45	1.9458454e-10
23.51	1.6922277e-10
23.57	1.4717120e-10
23.63	1.2798518e-10
23.69	1.1129933e-10
23.75	9.6787333e-11
23.81	8.4166943e-11
23.88	7.3191193e-11
23.94	6.3646439e-11
24.00	5.5345766e-11
24.06	4.8127508e-11
24.12	4.1850250e-11
24.18	3.6392208e-11
24.24	3.1645369e-11
24.30	2.7517460e-11
24.36	2.3928001e-11
24.42	2.0806601e-11
24.48	1.8092392e-11
24.54	1.5732138e-11
24.60	1.3679803e-11
24.66	1.1895124e-11
24.73	1.0343286e-11
24.79	8.9942403e-12
24.85	7.8208167e-12
24.91	6.8004439e-12
24.97	5.9132108e-12
25.03	5.1417053e-12
25.09	4.4708697e-12
25.15	3.8875342e-12
25.21	3.3803108e-12
25.27	2.9392384e-12
25.33	2.5557063e-12
25.39	2.2222267e-12
25.45	1.9321938e-12
25.51	1.6799874e-12
25.57	1.4606592e-12
25.64	1.2699273e-12
25.70	1.1040526e-12
25.76	9.5978792e-13
25.82	8.3427804e-13
25.88	7.2505109e-13
25.94	6.2992939e-13
26.00	5.4703465e-13
