# EMElectronMuonPairProduction interaction rates
# photon field: cosmic infrared and optical background radiation (upper) model of Dominguez et al. 2011 (arXiv:1007.1459)
# Produced with crpropa-data version: 6e626b569daf9d4e699ad3cbe04136073108f02d
# log10(E/eV), 1/lambda [1/Mpc]
15.01	3.3491885e-17
15.07	7.2712318e-16
15.13	5.5307921e-15
15.19	2.3747433e-14
15.25	7.3240252e-14
15.31	1.8441625e-13
15.38	4.0509110e-13
15.44	8.0252518e-13
15.50	1.4632812e-12
15.56	2.4933764e-12
15.62	4.0221654e-12
15.68	6.2169116e-12
15.74	9.3075816e-12
15.80	1.3613557e-11
15.86	1.9570300e-11
15.92	2.7756616e-11
15.98	3.8918075e-11
16.04	5.3984975e-11
16.10	7.4086118e-11
16.16	1.0054780e-10
16.23	1.3487816e-10
16.29	1.7875194e-10
16.35	2.3396450e-10
16.41	3.0235508e-10
16.47	3.8570522e-10
16.53	4.8563018e-10
16.59	6.0352049e-10
16.65	7.4048770e-10
16.71	8.9733799e-10
16.77	1.0745850e-09
16.83	1.2725029e-09
16.89	1.4912489e-09
16.95	1.7310606e-09
17.01	1.9924916e-09
17.07	2.2765207e-09
17.14	2.5846415e-09
17.20	2.9189003e-09
17.26	3.2817703e-09
17.32	3.6761401e-09
17.38	4.1054949e-09
17.44	4.5742645e-09
17.50	5.0884868e-09
17.56	5.6568037e-09
17.62	6.2919761e-09
17.68	7.0133524e-09
17.74	7.8513344e-09
17.80	8.8543600e-09
17.86	1.0098239e-08
17.93	1.1697341e-08
17.99	1.3816195e-08
18.05	1.6680448e-08
18.11	2.0585187e-08
18.17	2.5898571e-08
18.23	3.3058090e-08
18.29	4.2557528e-08
18.35	5.4923476e-08
18.41	7.0682154e-08
18.47	9.0322554e-08
18.53	1.1425972e-07
18.59	1.4280471e-07
18.65	1.7614611e-07
18.71	2.1434406e-07
18.77	2.5733651e-07
18.84	3.0495418e-07
18.90	3.5694082e-07
18.96	4.1297510e-07
19.02	4.7268761e-07
19.08	5.3566537e-07
19.14	6.0147707e-07
19.20	6.6969723e-07
19.26	7.3990883e-07
19.32	8.1171546e-07
19.38	8.8474706e-07
19.44	9.5865342e-07
19.50	1.0331180e-06
19.56	1.1078455e-06
19.62	1.1825720e-06
19.69	1.2570594e-06
19.75	1.3310965e-06
19.81	1.4045009e-06
19.87	1.4771090e-06
19.93	1.5487852e-06
19.99	1.6194170e-06
20.05	1.6888885e-06
20.11	1.7571275e-06
20.17	1.8240699e-06
20.23	1.8896717e-06
20.29	1.9538958e-06
20.35	2.0167307e-06
20.41	2.0781652e-06
20.48	2.1382158e-06
20.54	2.1968940e-06
20.60	2.2542484e-06
20.66	2.3103116e-06
20.72	2.3651540e-06
20.78	2.4188476e-06
20.84	2.4714538e-06
20.90	2.5230470e-06
20.96	2.5736817e-06
21.02	2.6234210e-06
21.08	2.6722966e-06
21.14	2.7203633e-06
21.20	2.7675503e-06
21.26	2.8138778e-06
21.32	2.8593369e-06
21.39	2.9039247e-06
21.45	2.9476546e-06
21.51	2.9905480e-06
21.57	3.0325951e-06
21.63	3.0737267e-06
21.69	3.1137910e-06
21.75	3.1525442e-06
21.81	3.1895496e-06
21.87	3.2241912e-06
21.93	3.2554146e-06
21.99	3.2814832e-06
22.05	3.2997627e-06
22.11	3.3066879e-06
22.18	3.2979036e-06
22.24	3.2684651e-06
22.30	3.2132153e-06
22.36	3.1273721e-06
22.42	3.0071365e-06
22.48	2.8506948e-06
22.54	2.6589185e-06
22.60	2.4361867e-06
22.66	2.1900297e-06
22.72	1.9302548e-06
22.78	1.6678286e-06
22.84	1.4133364e-06
22.90	1.1755311e-06
22.96	9.6057729e-07
23.02	7.7185654e-07
23.09	6.1029503e-07
23.15	4.7484212e-07
23.21	3.6319543e-07
23.27	2.7464032e-07
23.33	2.0765107e-07
23.39	1.5699978e-07
23.45	1.1870502e-07
23.51	8.9749894e-08
23.57	6.7867483e-08
23.63	5.1312907e-08
23.69	3.8796867e-08
23.75	2.9333341e-08
23.81	2.2178460e-08
23.88	1.6768579e-08
23.94	1.2678454e-08
24.00	9.5858622e-09
24.06	7.2477140e-09
24.12	5.4798153e-09
24.18	4.1433847e-09
24.24	3.1327456e-09
24.30	2.3685906e-09
24.36	1.7908534e-09
24.42	1.3540195e-09
24.48	1.0237520e-09
24.54	7.7403331e-10
24.60	5.8523417e-10
24.66	4.4248091e-10
24.73	3.3455259e-10
24.79	2.5298059e-10
24.85	1.9127456e-10
24.91	1.4461791e-10
24.97	1.0934323e-10
25.03	8.2671680e-11
25.09	6.2506727e-11
25.15	4.7259768e-11
25.21	3.5732334e-11
25.27	2.7016317e-11
25.33	2.0426596e-11
25.39	1.5444892e-11
25.45	1.1677484e-11
25.51	8.8291450e-12
25.57	6.6754807e-12
25.64	5.0472050e-12
25.70	3.8160452e-12
25.76	2.8852249e-12
25.82	2.1814123e-12
25.88	1.6492832e-12
25.94	1.2469152e-12
26.00	9.4279850e-13
