# EMElectronMuonPairProduction interaction rates
# photon field: cosmic infrared and optical background radiation (lower) model of Saldana-Lopez et al. 2021 (arXiv:2012.03035)
# Produced with crpropa-data version: c74da88f3d8cda00a7925828c92bf77454225cb0
# log10(E/eV), 1/lambda [1/Mpc]
15.01	2.6278584e-17
15.07	6.1804780e-16
15.14	4.4590000e-15
15.20	1.8590923e-14
15.26	5.7278324e-14
15.33	1.4426817e-13
15.39	3.1537886e-13
15.46	6.2193455e-13
15.52	1.1334232e-12
15.59	1.9409157e-12
15.65	3.1652343e-12
15.71	4.9733846e-12
15.78	7.6021595e-12
15.84	1.1385437e-11
15.91	1.6778814e-11
15.97	2.4373698e-11
16.04	3.4905813e-11
16.10	4.9262472e-11
16.16	6.8487825e-11
16.23	9.3778412e-11
16.29	1.2646878e-10
16.36	1.6800659e-10
16.42	2.1990321e-10
16.49	2.8364600e-10
16.55	3.6060174e-10
16.61	4.5191692e-10
16.68	5.5845762e-10
16.74	6.8079991e-10
16.81	8.1926087e-10
16.87	9.7399645e-10
16.94	1.1451639e-09
17.00	1.3331606e-09
17.06	1.5388045e-09
17.13	1.7634250e-09
17.19	2.0089373e-09
17.26	2.2777347e-09
17.32	2.5726782e-09
17.39	2.8971782e-09
17.45	3.2553042e-09
17.51	3.6523600e-09
17.58	4.0957927e-09
17.64	4.5964115e-09
17.71	5.1702571e-09
17.77	5.8410570e-09
17.84	6.6434270e-09
17.90	7.6268661e-09
17.96	8.8601854e-09
18.03	1.0435761e-08
18.09	1.2472580e-08
18.16	1.5117061e-08
18.22	1.8540741e-08
18.29	2.2934234e-08
18.35	2.8497203e-08
18.41	3.5425211e-08
18.48	4.3895269e-08
18.54	5.4052611e-08
18.61	6.6000497e-08
18.67	7.9794334e-08
18.74	9.5440390e-08
18.80	1.1289877e-07
18.86	1.3208941e-07
18.93	1.5289988e-07
18.99	1.7519302e-07
19.06	1.9880928e-07
19.12	2.2357291e-07
19.19	2.4930806e-07
19.25	2.7584103e-07
19.31	3.0300601e-07
19.38	3.3064777e-07
19.44	3.5862228e-07
19.51	3.8679773e-07
19.57	4.1505289e-07
19.64	4.4328015e-07
19.70	4.7138227e-07
19.76	4.9927456e-07
19.83	5.2688308e-07
19.89	5.5414281e-07
19.96	5.8099820e-07
20.02	6.0739894e-07
20.09	6.3330514e-07
20.15	6.5868121e-07
20.21	6.8350481e-07
20.28	7.0775554e-07
20.34	7.3142428e-07
20.41	7.5450153e-07
20.47	7.7699021e-07
20.54	7.9889349e-07
20.60	8.2022659e-07
20.66	8.4100982e-07
20.73	8.6127912e-07
20.79	8.8107412e-07
20.86	9.0044138e-07
20.92	9.1941863e-07
20.99	9.3803872e-07
21.05	9.5632031e-07
21.11	9.7426895e-07
21.18	9.9186472e-07
21.24	1.0090703e-06
21.31	1.0258530e-06
21.37	1.0421828e-06
21.44	1.0580443e-06
21.50	1.0734394e-06
21.56	1.0883473e-06
21.63	1.1027356e-06
21.69	1.1165232e-06
21.76	1.1295239e-06
21.82	1.1414419e-06
21.89	1.1518398e-06
21.95	1.1600779e-06
22.01	1.1652811e-06
22.08	1.1662786e-06
22.14	1.1615924e-06
22.21	1.1494850e-06
22.27	1.1281220e-06
22.34	1.0958127e-06
22.40	1.0513114e-06
22.46	9.9409857e-07
22.53	9.2466335e-07
22.59	8.4465751e-07
22.66	7.5684513e-07
22.72	6.6473955e-07
22.79	5.7211582e-07
22.85	4.8251870e-07
22.91	3.9889850e-07
22.98	3.2335012e-07
23.04	2.5705135e-07
23.11	2.0033825e-07
23.17	1.5289419e-07
23.24	1.1424764e-07
23.30	8.4972443e-08
23.36	6.3198195e-08
23.43	4.7004093e-08
23.49	3.4959261e-08
23.56	2.6001183e-08
23.62	1.9338361e-08
23.69	1.4383039e-08
23.75	1.0697376e-08
23.81	7.9562442e-09
23.88	5.9174510e-09
23.94	4.4011450e-09
24.01	3.2733485e-09
24.07	2.4345747e-09
24.14	1.8107132e-09
24.20	1.3467304e-09
24.26	1.0016298e-09
24.33	7.4496883e-10
24.39	5.5407005e-10
24.46	4.1209341e-10
24.52	3.0649419e-10
24.59	2.2795709e-10
24.65	1.6954293e-10
24.71	1.2609872e-10
24.78	9.3785834e-11
24.84	6.9753837e-11
24.91	5.1879368e-11
24.97	3.8585637e-11
25.04	2.8698040e-11
25.10	2.1344358e-11
25.16	1.5874852e-11
25.23	1.1807030e-11
25.29	8.7814704e-12
25.36	6.5312769e-12
25.42	4.8576326e-12
25.49	3.6128977e-12
25.55	2.6870901e-12
25.61	1.9985411e-12
25.68	1.4864135e-12
25.74	1.1055302e-12
25.81	8.2223726e-13
25.87	6.1154438e-13
25.94	4.5483566e-13
26.00	3.3828711e-13
